Title=Alexa650-
Comment=
Signature=ISS_Experiment_Ver_1_0
Timestamp=Thu May 19 12:15:54 2022

AcquisitionType=Photon Counting
AcquisitionFormat=L
AcquisitionSide=Right

Measurable=Intensity

RightEmissionWavelengthBandwidth=8
ExcitationWavelengthBandwidth=8
Visualization=PlotType:2D,X:Time,Y:Intensity


Time=type:numeric,unit:s,from:0.0,to:600.0,step:1.0
ExcitationWavelength=type:numeric,unit:nm,fixed:650.0
EmissionWavelength=type:numeric,unit:nm,fixed:668.0

Space=Time
Columns=Time,Intensity,IntensityStdError
[Data]
   0.00	         41656.6       175.63
   1.25	         41613.5       218.53
   2.44	         41331.7       224.09
   3.62	         41016.3       206.15
   4.84	           41784       310.88
   6.03	         41605.2       110.72
   7.25	         41235.7       279.78
   8.44	         41187.6       182.16
   9.66	           41300       158.26
  10.84	         41592.7       258.46
  12.06	         41431.1       220.63
  13.25	           41832       279.13
  14.47	           41037       286.38
  15.66	         41102.7       222.24
  16.87	         40528.5       250.77
  18.06	         40996.6       201.32
  19.28	         41332.6       215.86
  20.47	         41631.8       228.19
  21.69	         40983.6       179.05
  22.92	         40683.6       184.41
  24.11	         41712.2       146.63
  25.30	         41427.4       167.32
  26.51	           41055       201.41
  27.70	         41169.1       230.35
  28.92	         41528.9       275.54
  30.11	           41388       326.13
  31.33	         41196.5       216.79
  32.51	         41160.2       249.63
  33.73	         41072.4       206.69
  34.92	         41371.9       191.18
  36.14	         41524.5       297.58
  37.33	         41420.5       199.22
  38.55	         41343.3       214.73
  39.73	         40863.7       258.77
  40.95	         41224.2       285.34
  42.14	         41296.8       117.43
  43.36	         41339.5       219.61
  44.55	         41284.2       228.64
  45.76	         41280.4       225.71
  46.95	           41256       176.88
  48.17	         41483.4       272.05
  49.36	         41201.1       219.16
  50.58	         41456.1       170.71
  51.76	         41321.1        265.7
  52.98	           41492       317.73
  54.17	         41356.3       273.28
  55.39	         41544.3       316.11
  56.58	         41076.9       129.14
  57.80	           41800       145.92
  59.03	         42172.5       186.41
  60.22	         41411.9       246.71
  61.41	         41231.3       162.31
  62.62	         41039.8       183.96
  63.81	         41347.6       226.55
  65.03	         41060.2       253.86
  66.22	           41355       183.32
  67.44	           41647       154.65
